116	452
113	440
110	425
106	410
103	394
100	377
97	360
93	343
90	326
86	309
82	293
78	277
73	261
68	244
63	228
58	211
52	193
46	174
40	155
34	135
28	114
22	92
17	70
11	48
5	27
-1	5
-6	-15
-12	-35
-17	-55
-23	-73
-28	-91
-33	-108
-38	-124
-44	-140
-49	-155
-54	-170
-59	-185
-64	-199
-69	-213
-74	-227
-78	-241
-83	-254
-88	-268
-92	-281
-96	-294
-100	-306
-103	-319
-106	-331
-109	-342
-112	-354
-114	-365
-116	-375
-117	-386
-119	-396
-120	-406
-122	-415
-123	-425
-125	-435
-126	-444
-128	-454
-130	-464
-132	-475
-135	-486
-138	-497
-141	-509
-144	-520
-147	-532
-150	-543
-153	-553
-156	-562
-159	-570
-162	-576
-164	-580
-166	-581
-168	-580
-169	-575
-169	-568
-169	-559
-169	-547
-168	-533
-166	-517
-164	-499
-162	-481
-159	-463
-156	-444
-153	-425
-149	-407
-145	-389
-141	-371
-136	-353
-132	-336
-127	-318
-122	-300
-117	-282
-112	-264
-107	-245
-103	-226
-98	-206
-93	-187
-88	-168
-84	-149
-79	-131
-75	-113
-71	-97
-68	-82
-64	-68
-60	-55
-57	-43
-54	-32
-50	-21
-47	-11
-43	-1
-40	8
-36	18
-32	28
-28	39
-24	50
-20	61
-16	73
-12	85
-8	98
-4	111
-0	125
3	138
7	152
10	165
14	178
18	192
22	204
27	217
31	230
37	242
42	255
48	268
53	281
59	294
64	307
70	320
74	333
79	346
83	358
86	370
89	381
92	391
95	400
97	407
99	414
101	419
103	424
105	427
107	430
110	432
112	435
115	437
118	439
121	441
124	443
127	445
129	448
131	450
133	453
135	456
136	459
137	462
138	464
139	467
139	469
139	471
140	473
140	474
140	475
141	476
142	477
143	478
144	479
145	481
146	482
147	483
147	485
148	486
148	486
148	486
147	485
146	482
145	476
144	468
142	458
140	444
138	427
137	408
135	385
133	360
131	334
128	306
126	277
123	248
119	219
116	191
111	164
106	138
101	114
95	91
89	70
83	49
76	30
70	11
63	-7
57	-24
51	-42
44	-59
38	-75
33	-92
27	-108
22	-123
17	-138
12	-152
7	-166
2	-178
-2	-190
-6	-201
-10	-212
-14	-222
-18	-232
-22	-241
-26	-250
-30	-260
-34	-270
-38	-280
-42	-291
-47	-303
-51	-315
-56	-327
-61	-340
-66	-354
-70	-367
-75	-381
-80	-395
-84	-409
-88	-422
-92	-435
-96	-447
-100	-459
-104	-470
-107	-480
-111	-490
-114	-499
-118	-508
-121	-517
-125	-526
-129	-535
-132	-544
-136	-553
-139	-563
-143	-573
-146	-583
-149	-594
-152	-604
-155	-614
-157	-622
-159	-629
-161	-635
-162	-638
-163	-638
-163	-636
-164	-630
-163	-622
-163	-611
-162	-598
-161	-582
-159	-565
-157	-546
-155	-527
-152	-508
-149	-488
-146	-469
-143	-450
-139	-432
-136	-414
-132	-397
-128	-380
-125	-362
-121	-345
-118	-328
-114	-310
-111	-292
-108	-274
-105	-255
-102	-236
-99	-218
-96	-199
-93	-180
-90	-162
-86	-145
-82	-128
-78	-111
-73	-95
-68	-80
-63	-64
-57	-49
-52	-33
-46	-17
-40	-1
-35	16
-29	33
-24	50
-19	68
-14	86
-9	104
-4	121
-0	138
4	153
8	168
12	181
16	193
20	204
23	213
27	222
31	229
35	236
39	242
44	249
48	255
52	262
57	270
61	278
65	287
69	297
73	308
76	318
80	329
82	340
85	351
87	361
90	371
92	380
94	388
96	396
99	404
102	410
105	417
109	424
113	430
117	437
122	444
126	451
131	458
135	465
138	472
142	478
144	484
147	488
148	492
149	495
149	497
148	497
148	496
146	494
145	490
143	486
141	479
139	471
137	462
135	451
133	438
131	424
129	407
127	389
124	370
122	349
118	328
115	305
111	283
107	260
102	237
97	214
92	192
87	170
81	149
76	128
71	108
66	89
61	70
57	51
53	33
49	15
45	-2
42	-18
39	-34
35	-49
31	-63
28	-77
24	-90
19	-102
14	-115
9	-127
4	-140
-1	-152
-7	-166
-13	-179
-19	-193
-24	-208
-30	-223
-36	-237
-41	-252
-46	-267
-51	-281
-56	-295
-61	-308
-65	-321
-69	-333
-73	-344
-76	-355
-80	-365
-83	-375
-87	-384
-90	-394
-94	-403
-97	-412
-101	-421
-105	-430
-108	-438
-112	-446
-115	-453
-119	-460
-121	-464
-123	-468
-125	-469
-126	-468
-126	-464
-126	-458
-125	-450
-124	-439
-122	-426
-120	-411
-118	-394
-115	-377
-112	-359
-110	-341
-107	-323
-105	-306
-102	-290
-99	-274
-97	-260
-94	-246
-91	-233
-89	-221
-86	-209
-83	-197
-81	-185
-78	-173
-75	-160
-73	-147
-70	-134
-67	-121
-65	-107
-62	-93
-60	-79
-57	-64
-54	-50
-51	-35
-48	-20
-44	-5
-41	9
-37	24
-33	38
-29	52
-24	66
-20	79
-16	92
-11	105
-6	117
-2	130
3	142
8	155
13	167
19	180
24	194
30	207
35	220
41	234
46	247
51	260
56	273
61	285
65	295
69	305
73	314
76	322
78	330
81	336
82	342
84	348
85	353
86	358
87	363
88	368
89	373
90	378
92	383
93	388
95	392
97	396
99	400
101	404
103	407
105	411
107	414
109	417
110	420
111	423
112	426
113	428
113	431
113	433
114	435
114	436
114	437
114	437
114	435
114	433
114	430
115	426
115	420
115	413
115	404
115	394
115	383
113	370
112	355
109	339
107	321
103	303
100	282
95	261
91	240
86	218
80	195
75	173
69	151
64	130
58	109
52	89
46	70
40	51
34	33
28	16
22	-0
16	-17
11	-32
5	-48
-1	-63
-7	-78
-12	-92
-18	-106
-24	-120
-29	-134
-35	-147
-40	-161
-45	-173
-51	-186
-56	-199
-60	-211
-65	-224
-69	-236
-72	-248
-75	-261
-78	-272
-80	-284
-82	-295
-84	-305
-85	-315
-86	-324
-88	-333
-89	-341
-91	-349
-93	-356
-95	-363
-98	-370
-100	-378
-103	-386
-107	-395
-110	-404
-113	-414
-117	-424
-120	-435
-123	-446
-125	-457
-128	-467
-130	-476
-131	-484
-133	-490
-134	-493
-134	-494
-135	-492
-135	-488
-135	-480
-134	-470
-134	-458
-133	-444
-132	-428
-131	-410
-129	-392
-128	-374
-126	-355
-124	-336
-121	-318
-118	-300
-115	-282
-111	-265
-106	-247
-102	-230
-97	-213
-92	-195
-87	-177
-82	-159
-76	-140
-72	-122
-67	-103
-62	-85
-58	-67
-54	-49
-50	-33
-47	-17
-43	-2
-40	12
-36	26
-33	38
-29	50
-25	62
-22	73
-18	85
-14	96
-10	107
-6	118
-1	129
3	141
7	152
11	164
15	175
18	187
22	199
25	211
29	223
32	235
35	247
38	258
41	270
44	281
47	292
50	303
53	314
57	324
60	335
64	345
68	356
72	366
76	376
80	386
84	396
88	405
91	414
94	422
97	430
99	436
101	442
103	446
105	449
106	451
107	453
108	453
108	453
108	452
109	450
109	448
109	445
108	441
108	436
107	430
105	422
104	413
102	401
100	389
98	374
96	358
93	340
90	321
87	301
84	281
81	260
77	239
74	218
70	197
66	177
63	158
59	139
55	122
51	104
47	88
44	72
40	56
36	42
32	27
28	13
24	-2
20	-16
16	-30
12	-45
7	-60
2	-75
-3	-91
-8	-107
-13	-124
-18	-141
-23	-158
-28	-176
-33	-193
-38	-211
-43	-228
-47	-245
-51	-262
-55	-278
-59	-294
-63	-309
-67	-323
-70	-336
-74	-349
-78	-362
-82	-374
-86	-385
-91	-396
-95	-407
-99	-418
-103	-428
-106	-439
-110	-449
-112	-460
-115	-470
-116	-480
-118	-490
-119	-500
-120	-508
-121	-516
-121	-521
-122	-525
-122	-527
-123	-527
-124	-524
-125	-519
-125	-511
-126	-501
-126	-489
-126	-476
-125	-460
-124	-444
-123	-427
-121	-410
-118	-392
-115	-375
-112	-357
-109	-340
-106	-324
-103	-307
-99	-291
-96	-275
-94	-260
-91	-244
-88	-229
-85	-214
-83	-200
-80	-185
-77	-171
-73	-157
-70	-144
-66	-130
-62	-117
-57	-104
-53	-90
-49	-77
-44	-63
-40	-48
-35	-33
-31	-17
-27	-0
-23	17
-19	35
-15	53
-11	71
-7	89
-3	107
1	124
5	141
9	156
14	171
18	184
22	196
26	207
30	218
33	227
37	237
41	246
44	254
48	263
51	272
54	282
57	291
60	301
63	311
66	321
69	331
72	341
75	351
78	360
81	369
84	378
87	386
90	394
93	401
96	408
99	415
102	422
104	429
107	436
110	443
113	450
116	456
119	463
121	469
124	475
126	480
128	484
130	487
131	489
132	491
133	492
134	492
134	492
134	492
133	491
133	491
133	491
132	491
132	491
131	491
130	491
130	491
129	490
129	488
128	485
127	480
125	474
124	465
122	455
119	442
116	428
113	412
109	394
105	374
101	354
97	333
93	311
89	290
86	268
82	247
79	226
76	206
73	186
71	166
68	147
65	129
62	110
59	91
55	72
51	53
46	33
41	12
35	-9
30	-30
24	-51
18	-73
12	-94
6	-116
-0	-137
-6	-157
-12	-177
-17	-196
-22	-214
-27	-232
-32	-249
-37	-265
-42	-280
-46	-294
-51	-308
-56	-322
-60	-335
-65	-347
-69	-359
-74	-371
-78	-382
-82	-393
-86	-404
-90	-414
-94	-424
-97	-434
-100	-444
-103	-453
-105	-463
-107	-472
-109	-481
-110	-490
-111	-498
-112	-506
-114	-514
-115	-522
-116	-528
-118	-535
-120	-540
-122	-544
-124	-547
-126	-548
-128	-548
-130	-546
-132	-542
-133	-537
-133	-529
-133	-520
-133	-509
-132	-496
-130	-483
-127	-468
-125	-452
-122	-436
-119	-420
-116	-403
-113	-387
-110	-371
-108	-355
-106	-339
-104	-323
-103	-308
-101	-293
-99	-278
-97	-263
-95	-248
-92	-233
-89	-218
-85	-203
-80	-187
-76	-171
-71	-154
-66	-137
-61	-120
-56	-103
-52	-85
-48	-68
-44	-52
-40	-36
-37	-20
-34	-6
-31	7
-28	20
-25	31
-23	41
-19	51
-16	60
-13	68
-10	77
-6	85
-3	94
1	103
4	112
8	122
11	133
15	143
18	154
21	165
25	176
28	187
31	197
35	207
38	216
41	225
44	233
47	242
51	249
54	257
57	265
61	273
64	282
68	291
72	300
76	310
80	320
83	330
87	340
91	351
94	361
97	370
99	379
101	387
103	393
104	399
105	404
106	407
107	410
107	412
108	414
109	415
109	416
110	417
112	418
113	419
114	421
115	422
116	425
117	427
118	430
119	433
119	437
120	440
120	443
120	446
120	449
120	452
119	454
119	455
119	456
118	456
117	455
117	453
116	449
115	445
114	439
114	432
113	424
112	415
112	404
111	392
111	379
110	364
110	348
108	331
107	313
105	294
103	273
101	252
98	230
94	206
90	183
86	158
81	134
76	109
71	85
66	61
61	38
56	15
50	-7
45	-28
40	-47
34	-66
29	-84
23	-100
18	-116
13	-131
7	-145
2	-159
-4	-172
-10	-184
-15	-197
-21	-209
-26	-222
-32	-234
-38	-247
-43	-259
-48	-272
-53	-284
-58	-297
-62	-309
-66	-322
-70	-334
-73	-345
-76	-356
-78	-367
-80	-377
-82	-386
-84	-395
-85	-404
-87	-413
-89	-421
-91	-430
-94	-440
-97	-450
-100	-461
-103	-472
-107	-484
-110	-496
-114	-508
-118	-520
-121	-531
-125	-541
-128	-551
-131	-558
-134	-563
-136	-566
-138	-567
-139	-565
-140	-561
-141	-554
-141	-545
-141	-533
-140	-520
-139	-506
-137	-490
-135	-474
-133	-457
-130	-440
-127	-422
-124	-405
-121	-388
-118	-371
-114	-354
-111	-337
-107	-320
-103	-303
-99	-285
-94	-268
-89	-250
-85	-231
-80	-213
-75	-195
-70	-177
-66	-159
-62	-142
-58	-126
-55	-110
-52	-95
-49	-81
-47	-68
-44	-56
-42	-44
-40	-33
-37	-22
-34	-11
-31	-0
-27	11
-24	23
-20	35
-16	47
-12	60
-9	73
-5	86
-2	99
1	112
4	125
6	138
9	150
12	162
15	173
18	183
21	193
25	203
30	213
34	222
39	231
45	241
50	251
56	262
61	273
66	285
72	297
76	310
81	322
84	335
88	347
90	358
93	369
95	378
96	387
97	394
99	400
100	405
101	409
102	412
104	415
105	417
107	419
109	421
110	422
112	424
114	426
116	428
118	429
119	431
120	433
121	435
122	437
122	438
123	439
123	441
123	442
123	443
123	444
123	445
123	446
123	447
123	448
124	449
124	450
124	449
125	448
125	446
125	442
125	436
124	428
124	418
122	405
120	390
118	372
115	352
112	330
109	305
105	280
101	253
97	225
93	198
88	170
83	143
78	117
73	92
68	68
63	45
58	23
53	1
47	-19
41	-39
35	-58
29	-76
23	-94
17	-112
11	-129
4	-146
-2	-162
-8	-178
-14	-193
-20	-208
-25	-222
-30	-236
-35	-249
-39	-261
-43	-274
-47	-285
-50	-297
-53	-308
-56	-318
-58	-329
-61	-339
-64	-350
-67	-360
-70	-371
-73	-382
-77	-393
-81	-404
-85	-416
-89	-428
-93	-440
-97	-452
-101	-463
-105	-475
-108	-486
-111	-496
-114	-506
-117	-515
-120	-524
-122	-533
-124	-541
-126	-550
-129	-558
-131	-565
-133	-573
-136	-580
-138	-587
-141	-593
-144	-597
-147	-600
-149	-601
-151	-600
-153	-597
-154	-591
-154	-583
-153	-572
-152	-558
-150	-543
-146	-526
-143	-507
-138	-487
-134	-467
-129	-446
-124	-426
-120	-406
-116	-386
-112	-368
-108	-350
-105	-333
-103	-318
-100	-303
-98	-289
-96	-276
-93	-263
-90	-251
-87	-239
-84	-227
-80	-214
-77	-201
-73	-188
-69	-175
-65	-161
-61	-146
-58	-131
-55	-116
-52	-101
-50	-86
-47	-70
-45	-55
-42	-40
-40	-26
-37	-12
-34	3
-30	17
-26	31
-21	45
-16	60
-11	75
-6	90
-0	105
5	121
11	137
16	152
21	167
26	182
30	196
34	209
38	221
41	232
44	242
46	251
49	259
51	267
54	274
56	281
58	288
61	295
63	303
66	311
69	319
71	328
74	337
76	347
79	356
81	365
82	374
84	382
85	390
86	397
87	404
88	410
89	416
90	421
91	426
93	431
95	436
97	440
99	445
101	450
104	455
106	459
108	462
109	464
110	465
110	463
110	459
109	453
107	444
105	433
102	419
99	402
95	383
92	362
89	339
85	315
82	291
78	266
75	241
72	217
68	193
65	169
61	147
57	125
52	103
48	83
42	62
37	42
32	23
26	3
20	-16
15	-34
9	-52
4	-70
-1	-87
-5	-103
-9	-118
-13	-133
-16	-147
-19	-160
-22	-173
-25	-185
-28	-197
-30	-209
-33	-221
-36	-233
-39	-245
-42	-259
-46	-272
-50	-287
-54	-301
-58	-316
-62	-331
-66	-345
-70	-359
-74	-372
-78	-383
-81	-394
-85	-403
-88	-410
-91	-417
-94	-422
-97	-426
-100	-430
-102	-434
-105	-437
-107	-441
-109	-445
-112	-449
-114	-453
-115	-457
-117	-461
-118	-463
-118	-463
-118	-462
-118	-458
-117	-451
-116	-442
-114	-430
-112	-416
-109	-400
-107	-382
-104	-363
-101	-344
-98	-324
-95	-305
-93	-287
-90	-270
-88	-255
-86	-240
-84	-227
-82	-215
-79	-203
-77	-192
-74	-181
-71	-169
-68	-158
-65	-145
-61	-132
-58	-119
-54	-104
-51	-90
-48	-75
-45	-59
-42	-44
-39	-29
-37	-14
-34	1
-32	15
-29	29
-27	42
-24	56
-20	69
-17	82
-13	96
-8	109
-3	123
2	138
7	152
12	168
18	183
23	199
29	215
34	231
39	246
44	261
49	276
54	289
58	302
62	314
66	325
70	335
74	345
77	353
81	361
84	369
88	377
91	384
94	392
96	399
99	407
101	415
104	423
106	431
108	438
110	446
112	453
114	460
116	466
117	472
119	477
121	482
123	487
124	491
125	495
127	499
128	503
129	506
130	509
130	511
131	514
132	515
132	517
133	517
133	517
134	516
134	513
134	509
134	504
133	497
132	489
130	478
128	465
125	451
122	434
117	416
113	396
108	375
103	353
97	329
91	305
85	281
79	257
74	232
68	208
62	184
56	160
51	137
45	114
39	91
34	68
29	46
23	24
18	3
13	-19
8	-40
3	-60
-3	-80
-8	-100
-13	-119
-19	-137
-24	-156
-30	-174
-35	-191
-41	-209
-46	-226
-51	-243
-55	-260
-59	-277
-63	-295
-66	-311
-69	-328
-71	-344
-74	-359
-76	-374
-77	-387
-79	-400
-81	-413
-84	-425
-86	-436
-89	-447
-92	-459
-95	-470
-98	-483
-101	-496
-104	-509
-108	-524
-111	-538
-114	-553
-117	-567
-120	-581
-124	-593
-126	-603
-129	-611
-132	-616
-135	-618
-137	-616
-139	-611
-140	-602
-141	-590
-142	-576
-141	-559
-140	-540
-139	-519
-136	-498
-134	-476
-130	-454
-127	-433
-123	-412
-119	-391
-114	-371
-110	-351
-105	-331
-101	-311
-96	-292
-91	-272
-86	-251
-81	-230
-76	-209
-70	-187
-65	-165
-60	-143
-55	-120
-50	-99
-45	-77
-40	-56
-36	-36
-32	-17
-27	2
-23	19
-19	36
-15	51
-11	67
-6	81
-2	95
3	109
8	123
13	136
18	150
24	164
29	177
35	191
40	206
45	220
50	234
55	249
60	264
65	279
70	294
74	309
78	324
82	339
87	353
91	367
95	381
99	394
104	406
108	418
113	430
118	441
124	452
129	463
135	474
140	485
145	496
150	507
155	517
159	527
162	536
165	545
167	552
168	558
168	562
168	564
167	565
166	565
164	562
163	558
161	553
159	547
157	539
155	530
153	520
152	508
150	496
149	482
147	466
145	449
144	431
141	411
139	391
136	369
133	346
129	323
125	299
120	275
115	251
109	227
103	203
97	179
91	156
84	134
78	112
73	90
67	69
62	49
57	30
52	11
48	-8
43	-25
39	-42
35	-58
31	-74
26	-90
21	-106
17	-121
11	-137
6	-153
-0	-169
-5	-185
-11	-202
-17	-219
-23	-236
-29	-253
-34	-270
-40	-287
-45	-303
-50	-320
-55	-335
-59	-351
-63	-365
-68	-380
-72	-393
-75	-407
-79	-419
-83	-431
-87	-443
-91	-455
-95	-466
-99	-477
-103	-488
-107	-499
-111	-509
-115	-520
-118	-530
-122	-540
-125	-549
-127	-557
-129	-564
-130	-568
-131	-571
-131	-571
-131	-568
-130	-563
-129	-554
-128	-543
-126	-530
-125	-514
-123	-497
-122	-478
-120	-458
-119	-438
-117	-418
-115	-398
-114	-379
-112	-360
-109	-341
-107	-323
-104	-306
-101	-289
-98	-272
-94	-255
-90	-238
-86	-221
-83	-204
-79	-187
-76	-170
-72	-152
-69	-135
-66	-118
-63	-100
-60	-83
-57	-67
-54	-50
-51	-34
-47	-19
-43	-4
-39	11
-34	26
-28	40
-23	55
-17	70
-10	85
-4	101
3	118
9	135
15	152
22	170
28	189
34	207
39	225
45	243
50	260
54	277
58	292
62	306
66	319
69	331
72	342
75	352
78	361
81	370
84	378
87	387
90	395
93	403
96	412
100	420
103	428
106	436
109	444
112	451
115	458
117	464
120	470
121	474
123	479
124	482
125	485
126	487
127	489
128	490
129	490
130	490
131	489
132	487
133	484
133	480
133	474
133	466
132	457
130	445
128	431
125	414
121	395
116	374
111	351
105	327
99	301
92	275
86	247
79	220
72	193
65	167
59	141
52	116
46	91
39	68
33	45
27	23
20	1
14	-20
7	-41
1	-61
-6	-81
-13	-101
-19	-120
-26	-139
-33	-158
-39	-176
-45	-193
-50	-210
-56	-227
-61	-243
-65	-258
-69	-272
-73	-286
-76	-300
-79	-313
-81	-326
-84	-338
-86	-351
-88	-363
-90	-375
-93	-387
-95	-399
-98	-412
-101	-424
-104	-438
-108	-451
-111	-465
-115	-478
-119	-492
-122	-506
-125	-520
-128	-533
-131	-545
-133	-556
-136	-565
-138	-573
-139	-578
-141	-581
-142	-581
-144	-579
-145	-573
-146	-565
-146	-554
-147	-540
-146	-524
-145	-506
-144	-486
-141	-465
-138	-443
-135	-420
-131	-396
-126	-373
-120	-349
-115	-325
-109	-301
-103	-278
-98	-255
-92	-232
-87	-210
-82	-188
-77	-167
-72	-147
-68	-127
-64	-109
-60	-91
-56	-74
-52	-58
-48	-42
-44	-28
-40	-14
-36	-0
-32	13
-28	26
-23	39
-19	53
-15	66
-10	80
-6	95
-1	109
3	124
8	139
13	154
17	168
22	183
27	197
32	212
37	226
42	239
47	253
53	267
58	281
64	295
69	309
75	323
80	337
86	352
91	366
96	380
101	394
106	407
110	420
115	431
118	442
122	451
125	459
128	466
130	472
132	477
134	481
136	484
138	488
139	490
141	493
142	496
143	499
144	503
145	506
145	509
145	513
145	515
144	517
143	518
142	517
141	515
140	511
138	504
137	496
135	485
134	472
133	456
132	439
131	420
130	400
128	378
126	356
124	333
121	309
118	285
114	261
109	236
104	212
98	186
91	161
84	135
77	110
70	84
63	58
56	33
49	8
42	-16
35	-39
29	-62
23	-83
17	-104
11	-123
5	-142
-1	-160
-7	-178
-13	-195
-20	-211
-26	-227
-32	-242
-38	-258
-45	-273
-50	-287
-56	-301
-61	-315
-66	-328
-70	-341
-74	-353
-78	-365
-81	-377
-83	-388
-86	-399
-89	-410
-91	-421
-93	-432
-96	-443
-99	-454
-102	-465
-105	-477
-109	-490
-113	-503
-116	-516
-120	-530
-124	-544
-128	-557
-132	-571
-136	-584
-140	-596
-143	-606
-146	-614
-149	-620
-151	-623
-153	-623
-155	-620
-156	-614
-157	-604
-158	-592
-158	-578
-158	-561
-157	-543
-155	-523
-153	-502
-150	-481
-147	-460
-142	-438
-138	-416
-133	-395
-127	-373
-122	-351
-116	-328
-110	-306
-105	-284
-99	-261
-94	-239
-89	-217
-84	-196
-80	-175
-76	-155
-72	-136
-68	-118
-65	-101
-61	-85
-57	-69
-53	-55
-50	-41
-45	-27
-41	-13
-37	1
-32	15
-27	29
-22	44
-17	58
-13	74
-8	89
-3	105
1	120
6	136
10	152
15	167
19	182
24	197
29	212
35	227
40	241
46	256
52	270
58	285
64	299
70	313
76	328
81	342
87	355
92	369
96	381
101	393
104	404
108	414
111	423
114	431
117	439
119	445
122	450
124	455
126	460
129	464
131	467
133	471
135	474
137	478
139	481
140	485
141	489
143	493
143	497
144	501
144	504
144	508
144	510
143	512
142	513
141	513
140	511
139	507
138	502
137	494
136	484
136	472
135	457
134	441
133	422
132	402
131	380
129	357
126	333
123	307
120	281
115	255
110	227
105	200
98	173
91	145
84	118
76	91
68	64
60	38
52	12
44	-13
37	-36
30	-59
22	-81
16	-102
9	-122
2	-141
-4	-159
-10	-176
-17	-193
-23	-209
-29	-224
-35	-239
-42	-253
-48	-267
-54	-282
-59	-295
-65	-309
-70	-323
-74	-336
-79	-349
-83	-362
-86	-374
-89	-386
-92	-397
-94	-407
-97	-417
-99	-426
-101	-435
-103	-444
-106	-453
-109	-463
-112	-472
-115	-482
-119	-493
-123	-505
-126	-516
-130	-528
-134	-539
-137	-550
-140	-559
-143	-566
-145	-570
-146	-572
-147	-570
-147	-565
-147	-557
-147	-546
-146	-532
-145	-516
-144	-498
-142	-478
-141	-458
-139	-437
-137	-417
-135	-397
-133	-377
-130	-358
-127	-339
-123	-321
-120	-302
-115	-284
-111	-264
-106	-245
-100	-225
-95	-204
-89	-183
-83	-161
-78	-140
-72	-118
-67	-97
-62	-76
-57	-55
-53	-36
-49	-17
-45	-0
-41	17
-37	34
-34	49
-30	64
-26	79
-22	94
-18	109
-14	124
-9	139
-5	155
-0	171
5	186
10	202
15	218
20	234
24	249
29	264
33	278
37	291
41	305
45	317
48	329
52	341
56	353
60	364
64	376
69	387
74	399
79	411
85	423
91	436
97	449
103	462
109	476
114	489
119	502
124	514
127	525
130	536
133	546
135	554
136	562
137	568
138	573
138	577
138	580
138	583
139	585
139	586
139	587
139	588
139	589
139	589
139	589
139	588
138	585
137	582
136	577
134	569
132	560
130	547
128	533
125	515
123	495
120	473
117	449
114	423
111	396
108	368
105	341
102	313
99	286
96	260
93	235
89	211
85	188
81	166
77	145
72	124
67	103
62	81
56	60
50	38
43	16
37	-6
30	-29
23	-52
17	-74
10	-96
4	-118
-3	-138
-8	-158
-14	-177
-20	-195
-25	-211
-30	-227
-35	-242
-40	-257
-45	-271
-50	-284
-55	-298
-61	-311
-66	-324
-72	-338
-77	-351
-83	-365
-89	-379
-94	-392
-99	-406
-104	-418
-108	-431
-111	-443
-115	-454
-117	-464
-119	-474
-121	-482
-122	-491
-124	-499
-125	-506
-126	-514
-128	-521
-130	-529
-132	-537
-135	-545
-138	-552
-141	-559
-144	-565
-146	-570
-149	-573
-151	-574
-153	-573
-154	-569
-155	-563
-155	-554
-154	-542
-153	-528
-152	-512
-150	-494
-148	-475
-146	-455
-143	-435
-141	-414
-138	-394
-136	-374
-133	-354
-130	-334
-127	-315
-124	-297
-120	-278
-116	-259
-112	-241
-107	-222
-102	-203
-96	-184
-90	-164
-84	-144
-77	-124
-71	-104
-65	-84
-59	-64
-53	-45
-47	-26
-42	-7
-38	10
-34	27
-31	43
-27	57
-25	71
-22	84
-19	96
-17	107
-14	117
-11	127
-8	137
-5	146
-1	156
2	166
6	175
9	185
12	195
15	205
18	215
21	225
23	235
25	245
27	255
29	265
31	275
33	284
36	294
39	303
42	313
46	322
50	332
55	341
59	351
64	362
69	372
73	382
78	393
82	403
85	414
89	423
91	433
94	441
96	449
98	455
100	461
102	465
103	469
104	472
106	474
107	475
108	476
109	477
110	479
111	480
112	482
113	483
113	486
113	488
114	491
114	494
114	496
114	499
114	501
114	502
115	503
115	504
115	504
115	504
116	504
116	503
116	502
116	501
117	500
117	498
117	496
116	493
116	489
116	483
115	476
114	467
113	455
112	440
110	423
108	403
106	380
104	356
101	329
98	300
94	271
90	240
86	210
81	180
76	150
71	122
66	94
60	68
54	43
48	19
42	-4
36	-26
29	-47
23	-68
16	-88
10	-107
3	-126
-3	-145
-9	-164
-16	-182
-21	-200
-27	-217
-33	-234
-38	-251
-42	-267
-47	-282
-51	-297
-54	-311
-58	-325
-61	-338
-64	-351
-67	-365
-71	-378
-74	-391
-77	-405
-81	-419
-85	-433
-89	-448
-93	-463
-97	-478
-101	-493
-105	-508
-109	-523
-113	-537
-117	-551
-121	-564
-125	-576
-129	-588
-133	-598
-136	-608
-140	-616
-143	-623
-146	-629
-149	-634
-151	-637
-154	-639
-155	-639
-157	-638
-158	-635
-158	-630
-158	-623
-158	-614
-157	-603
-156	-590
-154	-575
-151	-558
-148	-539
-145	-518
-142	-496
-138	-474
-134	-451
-130	-427
-125	-404
-121	-382
-117	-359
-113	-338
-109	-318
-105	-299
-101	-280
-98	-263
-94	-246
-90	-229
-87	-213
-83	-197
-79	-180
-75	-164
-71	-146
-67	-129
-62	-111
-57	-92
-53	-74
-48	-55
-43	-36
-38	-17
-33	1
-28	19
-22	37
-17	54
-11	72
-5	89
1	106
7	123
14	140
21	158
28	176
35	194
41	213
48	232
54	251
60	270
65	289
70	307
75	324
79	341
83	356
87	370
90	382
93	393
97	403
100	412
104	421
107	428
111	435
114	442
117	448
120	455
123	462
126	468
129	475
131	482
133	488
134	495
135	501
136	507
137	513
137	517
137	522
137	525
137	527
136	528
136	528
135	527
134	525
133	520
132	515
131	507
130	498
129	486
127	473
126	457
124	439
121	419
118	397
115	373
111	347
106	319
102	291
96	261
91	230
85	199
78	167
72	136
66	105
59	74
53	44
47	14
41	-14
35	-42
29	-68
24	-94
18	-118
12	-142
6	-164
-0	-186
-6	-207
-12	-227
-19	-247
-25	-265
-31	-283
-37	-301
-43	-317
-48	-333
-54	-348
-58	-362
-63	-376
-66	-389
-70	-401
-73	-413
-76	-424
-79	-436
-82	-447
-84	-458
-87	-470
-90	-481
-94	-493
-97	-505
-101	-518
-105	-530
-109	-543
-113	-556
-117	-569
-121	-582
-125	-594
-128	-607
-132	-619
-135	-630
-138	-641
-140	-652
-143	-662
-146	-670
-148	-678
-151	-684
-154	-689
-156	-692
-159	-693
-161	-692
-163	-688
-164	-683
-165	-675
-165	-665
-164	-653
-162	-639
-160	-623
-157	-606
-153	-587
-149	-567
-144	-545
-139	-523
-133	-500
-128	-477
-122	-453
-117	-429
-112	-405
-106	-381
-101	-357
-97	-334
-92	-312
-87	-290
-83	-269
-78	-250
-73	-231
-68	-212
-63	-195
-58	-178
-53	-161
-47	-145
-41	-128
-36	-112
-30	-96
-24	-79
-19	-62
-13	-44
-8	-27
-2	-9
3	10
8	29
13	48
18	67
23	87
28	108
34	129
39	150
45	172
51	194
57	216
63	239
70	261
77	283
84	305
90	326
97	346
104	366
110	384
116	401
121	416
126	431
131	443
135	455
138	465
141	473
143	481
145	487
147	493
148	498
150	503
151	508
152	512
153	516
154	520
154	524
155	527
155	529
155	530
154	529
153	527
152	522
150	515
148	505
146	492
143	476
140	458
137	438
134	415
131	391
128	366
125	341
122	315
119	290
116	265
112	240
108	217
104	194
99	171
93	149
88	127
81	105
74	82
67	60
60	37
52	13
45	-10
37	-33
30	-56
23	-78
16	-99
9	-120
2	-140
-4	-158
-11	-176
-17	-193
-23	-209
-29	-225
-36	-240
-42	-256
-48	-271
-55	-286
-61	-302
-67	-317
-73	-333
-79	-348
-84	-363
-89	-378
-94	-391
-98	-405
-101	-417
-105	-429
-107	-440
-110	-451
-112	-461
-114	-470
-117	-480
-119	-489
-121	-498
-124	-506
-126	-513
-129	-520
-132	-525
-135	-529
-137	-531
-140	-530
-142	-527
-143	-522
-144	-514
-145	-504
-144	-491
-143	-476
-142	-459
-140	-441
-138	-422
-135	-402
-132	-381
-129	-360
-126	-339
-122	-319
-119	-298
-115	-278
-111	-258
-108	-238
-104	-219
-100	-199
-96	-179
-92	-159
-87	-139
-83	-118
-78	-97
-72	-76
-67	-55
-61	-33
-56	-10
-50	12
-44	34
-38	56
-33	78
-27	100
-22	120
-17	140
-12	158
-8	176
-3	192
1	208
5	222
10	235
14	248
18	260
23	272
28	284
32	296
37	308
42	321
47	334
52	347
56	361
61	374
65	388
69	402
73	415
76	428
80	441
83	453
87	464
90	474
94	484
98	493
102	502
106	509
110	517
115	524
119	531
123	538
127	545
130	552
133	559
136	565
138	570
139	574
140	577
140	578
140	577
139	573
138	566
136	555
134	542
132	525
129	505
126	482
123	457
119	430
116	401
111	371
107	341
102	311
96	280
91	251
85	222
79	194
72	166
66	140
59	115
52	90
46	66
39	43
32	20
25	-2
19	-24
12	-46
6	-66
-1	-87
-7	-106
-12	-125
-18	-144
-23	-161
-28	-179
-33	-195
-37	-211
-41	-227
-45	-243
-49	-258
-53	-274
-57	-290
-61	-306
-65	-322
-70	-339
-74	-356
-79	-374
-83	-391
-88	-409
-93	-427
-97	-446
-102	-464