-370
-369
-367
-366
-364
-362
-361
-359
-357
-355
-353
-350
-348
-345
-342
-339
-336
-333
-329
-325
-321
-317
-312
-307
-302
-297
-291
-285
-279
-272
-265
-258
-251
-243
-236
-227
-219
-210
-202
-192
-183
-173
-164
-154
-143
-133
-122
-112
-101
-90
-78
-67
-56
-44
-32
-21
-9
3
14
26
38
50
62
73
85
96
108
119
130
142
153
163
174
185
195
205
215
225
234
244
253
262
270
279
287
295
302
309
317
323
330
336
342
348
353
358
363
368
372
376
380
383
387
390
392
395
397
399
401
403
404
405
406
407
408
408
408
408
408
408
407
407
406
405
404
403
402
401
399
398
396
395
393
391
389
387
385
383
381
379
377
374
372
370
367
365
362
360
357
355
352
350
347
345
342
340
337
335
332
329
327
324
322
319
316
314
311
309
306
304
301
299
296
293
291
288
286
283
281
278
276
274
271
269
266
264
261
259
257
254
252
249
247
245
242
240
237
235
233
230
228
225
223
220
218
215
213
210
207
205
202
199
197
194
191
188
185
182
179
175
172
169
165
162
158
154
150
146
142
138
134
129
125
120
115
110
105
100
95
89
84
78
72
66
60
53
47
40
33
26
19
12
5
-2
-10
-18
-26
-33
-42
-50
-58
-66
-75
-83
-92
-100
-109
-118
-127
-136
-144
-153
-162
-171
-180
-189
-198
-207
-216
-225
-233
-242
-251
-259
-268
-276
-285
-293
-301
-309
-317
-324
-332
-339
-347
-354
-361
-367
-374
-380
-387
-393
-399
-404
-410
-415
-420
-425
-430
-434
-439
-443
-447
-450
-454
-457
-461
-464
-466
-469
-471
-474
-476
-478
-480
-481
-483
-484
-485
-487
-488
-488
-489
-490
-490
-491
-491
-491
-491
-492
-492
-491
-491
-491
-491
-491
-490
-490
-489
-489
-488
-488
-487
-487
-486
-485
-484
-484
-483
-482
-481
-480
-479
-478
-477
-476
-475
-473
-472
-470
-469
-467
-466
-464
-462
-460
-458
-456
-454
-451
-449
-446
-443
-440
-437
-434
-430
-427
-423
-419
-414
-410
-405
-400
-395
-390
-385
-379
-373
-367
-360
-354
-347
-339
-332
-324
-317
-308
-300
-291
-283
-274
-264
-255
-245
-235
-225
-215
-204
-193
-182
-171
-160
-149
-137
-125
-114
-102
-90
-77
-65
-53
-41
-28
-16
-3
9
22
34
47
59
72
84
97
109
121
133
145
157
168
180
191
202
213
224
235
245
255
265
275
285
294
303
312
320
328
336
344
351
359
365
372
378
384
390
395
400
405
410
414
418
422
425
428
431
434
436
438
440
442
443
444
445
446
446
447
447
447
446
446
445
445
444
443
441
440
439
437
436
434
432
430
428
426
424
422
420
417
415
413
410
408
406
403
401
399
396
394
391
389
387
384
382
380
377
375
373
370
368
366
364
361
359
357
355
352
350
348
346
344
341
339
337
334
332
330
327
325
322
320
317
314
311
308
306
302
299
296
293
289
286
282
278
274
270
266
262
257
253
248
243
238
233
227
222
216
210
204
198
192
185
179
172
165
158
150
143
135
128
120
112
103
95
86
78
69
60
51
42
33
24
14
5
-5
-15
-24
-34
-44
-54
-64
-74
-84
-94
-104
-114
-124
-134
-144
-154
-164
-174
-184
-194
-204
-214
-223
-233
-243
-252
-261
-271
-280
-289
-298
-307
-315
-324
-332
-340
-349
-357
-364
-372
-380
-387
-394
-401
-408
-415
-421
-427
-433
-439
-445
-451
-456
-461
-466
-471
-475
-480
-484
-488
-492
-495
-499
-502
-505
-508
-510
-513
-515
-517
-519
-520
-522
-523
-524
-524
-525
-525
-525
-525
-525
-525
-524
-523
-522
-520
-519
-517
-515
-513
-510
-508
-505
-502
-498
-495
-491
-487
-483
-479
-474
-469
-464
-459
-453
-447
-442
-435
-429
-422
-415
-408
-401
-394
-386
-378
-370
-362
-353
-344
-336
-327
-317
-308
-298
-288
-278
-268
-258
-247
-237
-226
-215
-204
-193
-182
-170
-159
-147
-136
-124
-112
-100
-88
-76
-64
-52
-40
-28
-16
-4
9
21
33
45
57
69
81
92
104
116
127
139
150
161
173
184
194
205
216
226
236
246
256
266
275
285
294
303
311
320
328
336
344
351
359
366
373
379
386
392
398
403
409
414
419
423
428
432
436
439
443
446
449
451
454
456
458
460
461
462
463
464
465
465
466
466
465
465
464
464
463
462
460
459
458
456
454
452
450
448
445
443
440
437
435
432
429
425
422
419
416
412
409
405
402
398
394
391
387
383
379
375
371
367
363
359
355
351
347
343
339
335
331
327
322
318
314
310
305
301
297
292
288
284
279
275
270
265
261
256
251
246
241
237
232
226
221
216
211
205
200
194
188
183
177
171
165
158
152
146
139
133
126
119
112
105
97
90
82
75
67
59
51
43
35
27
18
10
1
-7
-16
-25
-34
-43
-52
-61
-71
-80
-89
-99
-108
-117
-127
-136
-146
-155
-164
-174
-183
-193
-202
-211
-220
-229
-239
-247
-256
-265
-274
-282
-291
-299
-307
-315
-323
-331
-339
-346
-354
-361
-368
-375
-381
-388
-394
-400
-406
-412
-417
-422
-427
-432
-437
-442
-446
-450
-454
-458
-461
-465
-468
-471
-473
-476
-478
-481
-483
-484
-486
-488
-489
-490
-491
-492
-492
-493
-493
-493
-493
-493
-493
-492
-492
-491
-490
-489
-488
-486
-485
-483
-481
-479
-477
-475
-472
-470
-467
-464
-461
-458
-454
-451
-447
-443
-439
-435
-430
-426
-421
-416
-411
-405
-400
-394
-388
-382
-376
-369
-363
-356
-349
-341
-334
-326
-318
-310
-302
-293
-284
-275
-266
-257
-247
-238
-228
-218
-207
-197
-186
-176
-165
-154
-143
-131
-120
-108
-97
-85
-73
-61
-49
-37
-25
-13
-0
12
24
36
48
61
73
85
97
109
121
133
144
156
168
179
190
201
212
223
234
244
254
264
274
284
293
302
311
320
328
336
344
352
359
366
373
380
386
392
398
404
409
414
419
423
427
431
435
438
441
444
447
450
452
454
456
457
458
460
461
461
462
462
463
463
463
462
462
461
461
460
459
458
457
455
454
453
451
449
448
446
444
442
440
438
436
433
431
429
426
424
421
419
416
414
411
408
405
402
399
396
393
390
387
383
380
376
373
369
366
362
358
354
350
345
341
337
332
327
322
317
312
307
302
296
291
285
279
273
267
260
254
247
240
233
226
218
211
203
196
188
180
171
163
154
146
137
128
119
110
100
91
81
72
62
52
42
32
22
12
1
-9
-19
-30
-40
-51
-61
-72
-82
-93
-103
-114
-124
-135
-145
-156
-166
-176
-186
-197
-207
-217
-227
-236
-246
-256
-265
-274
-284
-293
-302
-310
-319
-328
-336
-344
-352
-360
-368
-375
-383
-390
-397
-404
-410
-417
-423
-429
-435
-441
-447
-452
-457
-462
-467
-472
-476
-480
-484
-488
-492
-495
-499
-502
-505
-507
-510
-512
-515
-517
-518
-520
-521
-523
-524
-525
-525
-526
-526
-526
-526
-526
-525
-524
-523
-522
-521
-519
-518
-516
-513
-511
-508
-506
-503
-499
-496
-492
-488
-484
-479
-475
-470
-465
-459
-453
-448
-441
-435
-428
-422
-414
-407
-400
-392
-384
-375
-367
-358
-349
-340
-330
-321
-311
-301
-290
-280
-269
-258
-247
-236
-225
-213
-202
-190
-178
-166
-154
-142
-129
-117
-104
-92
-79
-66
-54
-41
-28
-16
-3
10
22
35
48
60
72
85
97
109
121
133
144
156
167
178
189
200
210
221
231
241
251
260
269
278
287
296
304
312
320
327
334
341
348
354
360
366
372
377
382
387
392
396
400
404
407
410
413
416
419
421
423
425
427
428
429
430
431
432
432
433
433
433
433
433
432
432
431
430
429
429
427
426
425
424
422
421
419
418
416
414
412
410
409
407
405
403
401
399
396
394
392
390
388
386
384
381
379
377
375
373
370
368
366
363
361
359
357
354
352
350
347
345
343
340
338
335
333
330
328
325
323
320
318
315
312
310
307
304
301
299
296
293
290
287
284
280
277
274
271
267
264
260
257
253
249
245
241
238
233
229
225
221
216
212
207
202
198
193
188
182
177
172
166
161
155
149
143
137
131
125
118
112
105
98
91
84
77
70
62
55
47
39
31
23
15
7
-1
-10
-18
-27
-35
-44
-53
-62
-71
-80
-89
-98
-107
-117
-126
-135
-145
-154
-163
-173
-182
-192
-201
-211
-220
-229
-239
-248
-257
-266
-275
-284
-293
-302
-311
-319
-328
-336
-344
-353
-361
-369
-376
-384
-391
-399
-406
-413
-420
-426
-433
-439
-445
-451
-457
-462
-467
-473
-477
-482
-487
-491
-495
-499
-503
-506
-509
-512
-515
-518
-520
-523
-525
-526
-528
-529
-531
-532
-532
-533
-533
-533
-533
-533
-533
-532
-531
-530
-529
-528
-526
-525
-523
-521
-518
-516
-513
-510
-507
-504
-501
-497
-494
-490
-486
-481
-477
-472
-467
-462
-457
-452
-446
-441
-435
-429
-423
-416
-410
-403
-396
-389
-382
-374
-366
-359
-351
-343
-334
-326
-317
-308
-299
-290
-281
-272
-262
-253
-243
-233
-223
-213
-202
-192
-182
-171
-160
-150
-139
-128
-117
-106
-95
-84
-72
-61
-50
-39
-28
-16
-5
6
17
28
39
50
61
72
83
94
104
115
125
136
146
156
166
175
185
194
204
213
222
231
239
248
256
264
272
279
287
294
301
307
314
320
326
332
338
344
349
354
359
363
368
372
376
379
383
386
390
392
395
398
400
402
404
406
408
409
411
412
413
414
415
415
416
416
416
416
416
416
416
415
415
414
413
412
411
410
409
408
407
406
404
403
401
400
398
396
394
393
391
389
387
385
383
381
378
376
374
372
369
367
365
362
360
358
355
353
350
348
345
343
340
337
335
332
330
327
325
322
319
317
314
311
309
306
304
301
298
296
293
290
288
285
283
280
278
275
272
270
267
265
262
260
257
255
252
250
247
244
242
239
237
234
231
229
226
223
221
218
215
212
209
206
203
200
197
194
190
187
183
180
176
172
169
165
161
157
152
148
143
139
134
129
124
119
114
108
103
97
91
85
79
73
67
60
53
47
40
33
25
18
10
3
-5
-13
-21
-29
-37
-45
-54
-62
-71
-79
-88
-97
-106
-115
-123
-132
-141
-150
-159
-169
-178
-187
-196
-205
-213
-222
-231
-240
-249
-257
-266
-275
-283
-291
-299
-308
-316
-323
-331
-339
-346
-353
-361
-368
-374
-381
-388
-394
-400
-406
-412
-418
-423
-428
-434
-439
-443
-448
-452
-457
-461
-464
-468
-472
-475
-478
-481
-484
-487
-489
-492
-494
-496
-498
-499
-501
-502
-504
-505
-506
-507
-507
-508
-508
-509
-509
-509
-509
-508
-508
-507
-507
-506
-505
-504
-503
-501
-500
-498
-496
-494
-492
-490
-487
-485
-482
-479
-476
-473
-469
-466
-462
-458
-454
-449
-445
-440
-435
-430
-424
-419
-413
-407
-401
-394
-388
-381
-374
-367
-359
-351
-343
-335
-327
-318
-309
-300
-291
-282
-272
-262
-252
-242
-232
-221
-211
-200
-189
-178
-167
-155
-144
-132
-120
-109
-97
-85
-73
-61
-49
-37
-25
-12
-0
12
24
36
48
60
72
84
95
107
118
130
141
152
163
174
184
195
205
215
225
235
244
254
263
271
280
288
296
304
312
319
326
333
340
346
352
358
364
369
374
379
384
388
392
396
400
403
406
409
412
414
417
419
421
422
424
425
426
427
428
428
429
429
429
429
429
429
428
428
427
426
425
424
423
422
421
419
418
416
415
413
411
409
408
406
404
402
399
397
395
393
391
388
386
384
382
379
377
374
372
369
367
364
362
359
357
354
352
349
346
344
341
338
336
333
331
328
325
323
320
317
314
312
309
306
304
301
298
295
292
290
287
284
281
278
275
272
270
267
264
261
257
254
251
248
245
242
238
235
232
228
224
221
217
213
210
206
202
198
193
189
185
180
176
171
166
161
156
151
146
141
135
129
124
118
112
106
99
93
86
79
73
66
58
51
44
36
28
21
13
5
-4
-12
-20
-29
-38
-46
-55
-64
-73
-82
-92
-101
-110
-120
-129
-138
-148
-157
-167
-176
-186
-196
-205
-215
-224
-233
-243
-252
-261
-270
-280
-289
-297
-306
-315
-324
-332
-340
-348
-356
-364
-372
-380
-387
-394
-401
-408
-415
-421
-427
-433
-439
-445
-450
-456
-461
-466
-470
-475
-479
-483
-487
-490
-494
-497
-500
-503
-505
-508
-510
-512
-514
-515
-517
-518
-519
-520
-521
-521
-522
-522
-522
-522
-522
-521
-521
-520
-519
-518
-517
-516
-515
-513
-512
-510
-508
-506
-504
-501
-499
-496
-494
-491
-488
-485
-482
-479
-475
-472
-468
-464
-460
-456
-452
-448
-443
-438
-434
-429
-424
-418
-413
-408
-402
-396
-390
-384
-378
-371
-364
-358
-351
-344
-336
-329
-321
-313
-306
-297
-289
-281
-272
-264
-255
-246
-237
-227
-218
-208
-199
-189
-179
-169
-159
-148
-138
-128
-117
-107
-96
-85
-74
-64
-53
-42
-31
-20
-9
2
13
24
35
46
56
67
78
88
99
109
120
130
140
150
160
170
180
189
199
208
217
226
235
243
252
260
268
276
283
291
298
305
312
319
325
331
337
343
348
354
359
364
368
373
377
381
385
389
392
395
398
401
404
406
409
411
413
414
416
417
419
420
421
422
422
423
423
424
424
424
424
424
423
423
423
422
421
421
420
419
418
417
416
415
414
413
412
410
409
408
406
405
404
402
401
399
397
396
394
393
391
389
387
386
384
382
380
378
376
374
372
370
368
365
363
361
358
356
353
351
348
345
342
339
336
333
329
326
322
319
315
311
307
303
298
294
289
284
279
274
269
263
258
252
246
240
233
227
220
213
206
199
191
183
176
168
159
151
142
134
125
116
107
97
88
78
68
58
48
38
28
17
7
-4
-14
-25
-36
-47
-58
-69
-80
-91
-102
-113
-125
-136
-147
-158
-169
-180
-191
-202
-213
-223
-234
-245
-255
-265
-276
-286
-296
-306
-315
-325
-334
-343
-352
-361
-370
-378
-386
-394
-402
-410
-417
-424
-431
-438
-444
-451
-457
-462
-468
-473
-478
-483
-487
-491
-495
-499
-503
-506
-509
-512
-514
-516
-518
-520
-522
-523
-524
-525
-525
-526
-526
-526
-525
-525
-524
-523
-521
-520
-518
-516
-514
-512
-509
-506
-503
-500
-496
-493
-489
-485
-481
-476
-472
-467
-462
-456
-451
-445
-440
-434
-427
-421
-414
-408
-401
-394
-387
-379
-372
-364
-356
-348
-340
-331
-323
-314
-305
-296
-287
-278
-268
-259
-249
-239
-229
-219
-209
-199
-189
-178
-168
-157
-147
-136
-125
-114
-103
-93
-82
-71
-60
-49
-38
-26
-15
-4
7
18
29
40
50
61
72
83
93
104
114
125
135
145
155
165
175
185
195
204
213
222
231
240
249
258
266
274
282
290
298
305
312
319
326
333
339
346
352
358
363
369
374
379
384
389
393
398
402
406
410
413
416
420
423
425
428
430
433
435
437
439
440
442
443
444
445
446
447
447
448
448
448
448
448
448
448
448
447
447
446
445
444
444
443
442
440
439
438
437
435
434
432
431
429
428
426
424
422
421
419
417
415
413
411
408
406
404
402
399
397
395
392
389
387
384
381
379
376
373
370
366
363
360
356
353
349
346
342
338
334
330
325
321
316
312
307
302
297
291
286
280
275
269
263
256
250
243
237
230
223
215
208
200
192
184
176
168
160
151
142
133
124
115
105
96
86
76
66
56
46
36
25
15
4
-7
-17
-28
-39
-50
-61
-72
-83
-95
-106
-117
-128
-139
-150
-161
-172
-183
-194
-205
-216
-227
-237
-248
-258
-269
-279
-289
-299
-309
-318
-328
-337
-347
-356
-365
-373
-382
-390
-398
-406
-414
-422
-429
-436
-443
-450
-457
-463
-469
-475
-481
-487
-492
-497
-502
-507
-511
-516
-520
-524
-528
-532
-535
-538
-541
-544
-547
-549
-552
-554
-556
-558
-559
-561
-562
-563
-564
-565
-565
-566
-566
-566
-566
-565
-565
-564
-563
-562
-561
-559
-557
-555
-553
-551
-548
-546
-543
-539
-536
-532
-528
-524
-520
-515
-510
-505
-499
-494
-488
-481
-475
-468
-461
-454
-446
-438
-430
-421
-412
-403
-394
-384
-374
-364
-353
-342
-331
-320
-308
-296
-284
-271
-259
-246
-233
-219
-205
-192
-178
-163
-149
-134
-120
-105
-90
-75
-60
-44
-29
-13
2
18
33
49
65
80
96
111
127
142
157
173
188
203
217
232
247
261
275
289
303
316
329
342
355
368
380
392
404
415
426
437
447
457
467
476
486
494
503
511
519
526
533
540
546
552
558
564
569
573
578
582
586
589
593
595
598
600
602
604
606
607
608
609
609
609
609
609
609
608
607
606
605
604
602
600
599
597
594
592
589
587
584
581
578
575
572
569
565
561
558
554
550
546
542
538
534
529
525
520
515
511
506
501
496
490
485
480
474
469
463
457
451
445
439
432
426
419
412
406
399
391
384
377
369
362
354
346
338
329
321
312
304
295
286
277
268
258
249
239
229
219
209
199
189
178
168
157
146
135
124
113
102
91
80
69
57
46
34
23
11
-1
-12
-24
-35
-47
-59
-70
-82
-93
-105
-116
-128
-139
-151
-162
-173
-184
-195
-206
-217
-227
-238
-248
-259
-269
-279
-289
-298
-308
-317
-326
-335
-344
-353
-362
-370
-378
-386
-394
-402
-409
-416
-423
-430
-437
-443
-449
-455
-461
-467
-472
-478
-483
-488
-492
-497
-501
-505
-509
-513
-516
-520
-523
-526
-529
-531
-534
-536
-538
-540
-541
-543
-544
-545
-546
-547
-548
-548
-549
-549
-549
-548
-548
-547
-547
-546
-545
-543
-542
-540
-538
-536
-534
-532
-529
-526
-523
-520
-517
-513
-509
-505
-501
-496
-492
-487
-482
-476
-471
-465
-459
-453
-447
-440
-433
-426
-419
-411
-403
-395
-387
-378
-370
-361
-352
-342
-333
-323
-313
-303
-292
-282
-271
-260
-249
-237
-226
-214
-202
-190
-178
-166
-154
-141
-128
-116
-103
-90
-77
-64
-51
-38
-24
-11
2
15
29
42
55
68
81
94
107
120
133
146
159
171
184
196
208
220
232
243
255
266
277
288
298
309
319
329
339
348
357
366
375
384
392
400
407
415
422
429
436
442
448
454
459
464
469
474
479
483
487
490
494
497
500
503
505
507
509
511
512
514
515
516
517
517
517
518
518
517
517
517
516
515
514
513
512
510
509
507
506
504
502
500
497
495
493
490
488
485
482
479
476
473
470
467
463
460
456
453
449
445
441
437
433
428
424
419
415
410
405
400
395
389
384
378
373
367
361
354
348
341
335
328
321
313
306
298
290
282
274
266
257
249
240
230
221
212
202
192
182
172
162
151
140
129
118
107
96
84
73
61
49
37
25
13
1
-11
-24
-36
-49
-61
-74
-87
-99
-112
-125
-137
-150
-162
-175
-187
-200
-212
-225
-237
-249
-261
-273
-284
-296
-307
-319
-330
-341
-352
-362
-373
-383
-393
-403
-412
-422
-431
-440
-449
-457
-465
-473
-481
-488
-496
-503
-509
-516
-522
-528
-534
-539
-544
-549
-554
-558
-562
-566
-569
-573
-576
-578
-581
-583
-585
-587
-588
-590
-591
-591
-592
-592
-592
-592
-591
-590
-589
-588
-586
-584
-582
-580
-578
-575
-572
-568
-565
-561
-557
-553
-548
-543
-538
-533
-527
-521
-515
-509
-502
-495
-488
-480
-473
-465
-456
-448
-439
-430
-421
-411
-402
-392
-381
-371
-360
-349
-338
-326
-315
-303
-290
-278
-265
-253
-240
-227
-213
-200
-186
-172
-158
-144
-130
-116
-101
-87
-72
-57
-42
-28
-13
2
17
32
47
62
76
91
106
120
135
149
164
178
192
206
220
233
246
260
273
285
298
310
322
334
345
357
368
378
389
399
409
418
427
436
445
453
461
468
476
482
489
495
501
507
512
517
521
526
529
533
536
539
542
544
547
548
550
551
552
553
553
554
554
553
553
552
551
550
549
547
546
544
542
540
538
535
533
530
527
524
521
518
515
511
508
504
501
497
493
489
485
481
477
473
469
465
460
456
452
447
443
438
433
429
424
419
414
409
404
399
394
389
383
378
372
367
361
355
349
343
337
331
325
318
312
305
298
291
284
277
269
262
254
247
239
231
222
214
205
197
188
179
170
161
151
142
132
122
112
102
92
82
71
61
50
39
29
18
7
-5
-16
-27
-38
-49
-61
-72
-84
-95
-106
-118
-129
-141
-152
-163
-175
-186
-197
-208
-219
-230
-241
-252
-263
-273
-284
-294
-304
-314
-324
-333
-343
-352
-362
-371
-379
-388
-396
-405
-413
-421
-428
-436
-443
-450
-457
-463
-470
-476
-482
-488
-493
-499
-504
-509
-513
-518
-522
-526
-530
-534
-537
-541
-544
-547
-550
-552
-555
-557
-559
-561
-562
-564
-565
-566
-567
-568
-569
-569
-570
-570
-570
-570
-569
-569
-568
-567
-566
-565
-564
-563
-561
-559
-557
-555
-552
-550
-547
-544
-541
-537
-534
-530
-526
-522
-517
-513
-508
-502
-497
-491
-485
-479
-473
-466
-459
-452
-445
-437
-429
-421
-412
-403
-394
-385
-375
-365
-355
-345
-334
-323
-312
-300
-288
-277
-264
-252
-239
-226
-213
-200
-187
-173
-159
-145
-131
-117
-102
-88
-73
-59
-44
-29
-14
1
16
31
46
61
76
91
106
121
135
150
165
179
193
207
221
235
249
262
275
288
301
313
326
338
349
361
372
383
393
403
413
423
432
441
449
458
465
473
480
487
493
500
505
511
516
521
525
529
533
536
539
542
544
546
548
549
551
552
552
552
552
552
552
551
550
549
548
546
544
542
540
538
535
533
530
527
524
521
517
514
510
507
503
499
495
491
487
483
479
475
471
466
462
458
454
449
445
440
436
432
427
423
418
414
409
405
400
396
391
387
382
378
373
368
364
359
354
350
345
340
335
330
325
320
315
309
304
299
293
287
282
276
270
264
258
251
245
238
232
225
218
211
203
196
188
181
173
165
157
148
140
131
122
113
104
95
85
76
66
56
46
36
26
15
5
-6
-17
-27
-38
-49
-60
-72
-83
-94
-105
-117
-128
-139
-151
-162
-174
-185
-196
-208
-219
-230
-242
-253
-264
-275
-285
-296
-307
-317
-328
-338
-348
-358
-368
-377
-387
-396
-405
-414
-423
-431
-439
-447
-455
-463
-470
-477
-484
-491
-497
-503
-509
-515
-521
-526
-531
-535
-540
-544
-548
-552
-555
-559
-561
-564
-567
-569
-571
-573
-574
-575
-577
-577
-578
-578
-578
-578
-578
-577
-576
-575
-574
-573
-571
-569
-567
-564
-562
-559
-556
-552
-549
-545
-541
-537
-533
-528
-523
-518
-513
-507
-501
-495
-489
-482
-476
-469
-462
-454
-447
-439
-430
-422
-414
-405
-396
-386
-377
-367
-357
-347
-337
-326
-315
-304
-293
-282
-270
-258
-246
-234
-222
-209
-197
-184
-171
-158
-145
-131
-118
-105
-91
-77
-64
-50
-36
-22
-8
6
20
34
48
61
75
89
103
116
130
144
157
170
183
196
209
222
234
247
259
271
282
294
305
316
327
338
348
358
368
377
387
395
404
413
421
429
436
443
450
457
463
469
475
480
486
491
495
499
503
507
511
514
517
519
522
524
526
527
529
530
531
532
532
532
533
532
532
532
531
530
529
528
527
526
524
522
520
519
517
514
512
510
507
505
502
499
497
494
491
488
485
482
478
475
472
469
465
462
458
454
451
447
443
439
436
432
428
424
419
415
411
407
402
398
393
388
384
379
374
369
364
359
353
348
342
337
331
325
319
313
306
300
293
287
280
273
266
259
251
244
236
228
220
212
204
195
186
178
169
160
151
141
132
122
113
103
93
83
72
62
52
41
31
20
9
-2
-13
-24
-35
-46
-57
-68
-79
-90
-102
-113
-124
-135
-146
-158
-169
-180
-191
-202
-212
-223
-234
-244
-255
-265
-276
-286
-296
-306
-315
-325
-334
-343
-352
-361
-370
-379
-387
-395
-403
-411
-418
-426
-433
-440
-446
-453
-459
-465
-471
-477
-482
-487
-492
-497
-502
-506
-510
-514
-518
-521
-525
-528
-531
-534
-536
-538
-541
-543
-544
-546
-548
-549
-550
-551
-552
-552
-553
-553
-553
-553
-553
-553
-552
-551
-551
-550
-549
-547
-546
-544
-543
-541
-539
-536
-534
-531
-529
-526
-523
-520
-516
-513
-509
-505
-501
-497
-492
-488
-483
-478
-472
-467
-461
-455
-449
-443
-436
-429
-422
-415
-407
-400
-392
-383
-375
-366
-357
-348
-339
-329
-320
-310
-299
-289
-278
-267
-256
-245
-233
-222
-210
-198
-186
-173
-161
-148
-136
-123
-110
-97
-84
-70
-57
-44
-30
-17
-4
10
23
37
50
63
76
90
103
116
129
141
154
166
179
191
203
215
226
238
249
260
270
281
291
301
310
320
329
337
346
354
362
369
377
383
390
396
402
408
413
418
423
427
431
435
438
441
444
446
448
450
452
453
454
455
456
456
456
456
455
455
454
453
451
450
448
447
445
443
440
438
435
433
430
427
424
421
418
415
411
408
405
401
398
394
391
387
383
380
376
373
369
365
362
358
355
351
348
344
341
337
334
330
327
324
321
317
314
311
308
305
302
299
296
293
290
288
285
282
280
277
275
272
270
267
265
262
260
258
256
253
251
249
247
245
243
241
239
237
234
232
230
228
226
224
222
220
218
216
214
212
210
208
205
203
201
199
196
194
191
189
186
183
181
178
175
172
169
166
162
159
155
152
148
144
140
136
132
127
123
118
113
108
103
98
93
87
82
76
70
64
57
51
44
38
31
24
16
9
2
-6
-14
-22
-30
-38
-46
-54
-63
-71
-80
-89
-98
-107
-116
-125
-134
-143
-153
-162
-171
-181
-190
-199
-209
-218
-228
-237
-246
-256
-265
-274
-284
-293
-302
-311
-320
-329
-337
-346
-354
-363
-371
-379
-387
-395
-403
-411
-418
-425
-432
-439
-446
-453
-459
-466
-472
-478
-483
-489
-494
-499
-504
-509
-514
-518
-522
-526
-530
-534
-537
-541
-544
-547
-549
-552
-554
-556
-558
-560
-561
-562
-564
-565
-565
-566
-566
-566
-566
-566
-565
-565
-564
-563
-562
-560
-558
-557
-554
-552
-550
-547
-544
-541
-537
-534
-530
-526
-522
-517
-513
-508
-503
-497
-491
-486
-480
-473
-467
-460
-453
-445
-438
-430
-422
-414
-405
-397
-388
-378
-369
-359
-349
-339
-329
-318
-308
-297
-286
-274
-263
-251
-239
-227
-215
-202
-190
-177
-164
-151
-138
-125
-111
-98
-84
-71
-57
-43
-29
-16
-2
12
26
40
54
68
81
95
109
122
136
149
163
176
189
202
215
228
240
253
265
277
289
300
312
323
334
345
355
366
376
386
395
405
414
422
431
439
447
455
462
470
476
483
489
495
501
507
512
517
521
526
530
534
537
540
544
546
549
551
553
555
557
558
559
560
561
561
561
561
561
561
560
559
559
557
556
555
553
551
549
547
545
543
540
537
535
532
529
525
522
518
515
511
507
503
499
495
491
486
482
477
472
467
462
457
451
446
440
435
429
423
417
410
404
397
391
384
377
370
362
355
347
340
332
324
315
307
298
290
281
272
263
253
244
234
224
214
204
194
183
173
162
151
140
129
118
107
95
83
72
60
48
36
24
12
-0
-13
-25
-37
-50
-62
-75
-87
-100
-112
-124
-137
-149
-162
-174
-186
-198
-210
-222
-234
-245
-257
-268
-280
-291
-302
-313
-323
-334
-344
-354
-364
-374
-383
-393
-402
-411
-419
-428
-436
-444
-451
-459
-466
-473
-480
-486
-492
-498
-504
-510
-515
-520
-525
-529
-533
-538
-541
-545
-548
-552
-555
-557
-560
-562
-565
-567
-568
-570
-572
-573
-574
-575
-576
-576
-577
-577
-578
-578
-578
-577
-577
-576
-576
-575
-574
-573
-572
-571
-570
-568
-566
-565
-563
-561
-558
-556
-554
-551
-548
-545
-542
-539
-536
-532
-528
-524
-520
-516
-511
-507
-502
-496
-491
-486
-480
-474
-467
-461
-454
-447
-440
-432
-424
-416
-408
-399
-390
-381
-372
-362
-352
-342
-331
-321
-310
-298
-287
-275
-263
-251
-238
-225
-212
-199
-185
-172
-158
-144
-130
-115
-101
-86
-71
-56
-41
-26
-11
5
20
36
51
66
82
98
113
128
144
159
175
190
205
220
235
249
264
278
292
306
320
334
347
360
373
386
398
411
422
434
445
456
467
477
487
497
507
516
524
533
541
549
556
563
570
577
583
588
594
599
604
608
613
616
620
623
626
629
631
633
635
637
638
639
640
640
640
640
640
639
639
638
636
635
633
632
629
627
625
622
619
616
613
610
606
602
598
594
590
585
581
576
571
565
560
555
549
543
537
531
524
518
511
504
497
489
482
474
466
458
450
441
433
424
415
406
396
387
377
367
357
346
336
325
314
303
292
281
269
257
245
233
221
209
196
183
171
158
145
132
118
105
91
78
64
51
37
23
9
-5
-19
-33
-46
-60
-74
-88
-102
-116
-130
-143
-157
-171
-184
-197
-211
-224
-237
-250
-263
-275
-288
-300
-312
-324
-336
-347
-359
-370
-381
-392
-402
-412
-422
-432
-442
-451
-460
-469
-478
-486
-494
-502
-510
-517
-524
-531
-537
-543
-549
-555
-561
-566
-571
-575
-580
-584
-587
-591
-594
-597
-600
-602
-604
-606
-608
-609
-610
-611
-612
-612
-612
-611
-611
-610
-609
-608
-606
-604
-602
-599
-596
-593
-590
-586
-582
-578
-574
-569
-564
-558
-553
-547
-540
-534
-527
-520
-512
-505
-497
-488
-480
-471
-461
-452
-442
-432
-422
-411
-400
-389
-378
-366
-354
-342
-329
-317
-304
-291
-277
-264
-250
-236
-222
-207
-193
-178
-163
-149
-133
-118
-103
-88
-72
-57
-41
-26
-10
6
21
37
52
68
83
99
114
129
144
159
174
189
204
218
232
246
260
274
287
300
313
326
338
350
362
373
385
395
406
416
426
436
445
454
463
472
480
487
495
502
508
515
521
527
532
537
542
546
551
554
558
561
564
567
569
572
573
575
576
577
578
579
579
580
580
579
579
578
577
576
575
574
572
570
568
566
564
561
559
556
553
550
547
544
540
537
533
529
525
521
517
512
507
503
498
493
488
482
477
471
465
459
453
447
440
433
426
419
412
405
397
389
381
373
365
356
347
338
329
320
310
300
290
280
270
259
249
238
227
215
204
192
181
169
157
144
132
119
107
94
81
68
55
42
29
16
2
-11
-25
-38
-52
-65
-79
-92
-106
-120
-133
-146
-160
-173
-186
-200
-213
-226
-239
-252
-264
-277
-289
-302
-314
-326
-338
-349
-361
-372
-383
-394
-405
-415
-426
-436
-446
-456
-465
-474
-483
-492
-501
-509
-517
-525
-533
-540
-548
-555
-561
-568
-574
-580
-586
-591
-596
-601
-606
-610
-614
-618
-622
-625
-628
-631
-634
-636
-638
-640
-641
-642
-643
-643
-643
-643
-643
-642
-641
-639
-637
-635
-632
-629
-626
-623
-618
-614
-609
-604
-598
-592
-586
-579
-572
-564
-556
-547
-538
-529
-519
-509
-498
-487
-476
-464
-451
-439
-425
-412
-398
-383
-369
-353
-338
-322
-306
-289
-272
-255
-237
-219
-201
-183
-164
-146
-127
-107
-88
-69
-49
-30
-10
10
30
49
69
89
108
128
147
166
185
203
222
240
258
275
293
309
326
342
357
372
387
401
414
427
439
451
462
472
482
491
500
508
515
521
527
532
536
539
542
544
546
546
546
545
544
541
539
535
531
526
520
514
508
500
493
484
475
466
456
446
436
425
414
402
390
378
366
354
341
328
316
303
